#t (s)	<m>_x ()	<m>_y ()	<m>_z ()	
1.3116816711425782e-12	0.9130468964576721	-0.24714195728302002	-8.34504135127645e-06	
2.953783760070801e-12	0.9127346277236938	-0.24756407737731934	-1.782486287993379e-05	
3.953783760070801e-12	0.9125450253486633	-0.24782048165798187	-2.665390638867393e-05	
4.953783760070801e-12	0.9123561978340149	-0.2480761706829071	-3.777011443162337e-05	
5.953783760070801e-12	0.9121685028076172	-0.2483310103416443	-5.114532541483641e-05	
6.9537837600708e-12	0.9119820594787598	-0.24858476221561432	-6.674662290606648e-05	
7.9537837600708e-12	0.9117971658706665	-0.24883730709552765	-8.453636837657541e-05	
8.9537837600708e-12	0.9116142392158508	-0.24908843636512756	-0.0001044721866492182	
9.9537837600708e-12	0.9114333987236023	-0.24933800101280212	-0.0001265074242837727	
1.09537837600708e-11	0.9112548828125	-0.24958579242229462	-0.00015059146971907467	
1.19537837600708e-11	0.911078929901123	-0.2498316764831543	-0.00017667023348622024	
1.2953783760070799e-11	0.9109058380126953	-0.25007545948028564	-0.00020468646835070103	
1.3953783760070799e-11	0.9107358455657959	-0.25031691789627075	-0.00023458019131794572	
1.489175386219628e-11	0.9105793833732605	-0.25054123997688293	-0.00026426889235153794	
1.5401163425375952e-11	0.9104956388473511	-0.25066208839416504	-0.00028103915974497795	
1.6043635108723784e-11	0.9103914499282837	-0.2508135139942169	-0.00030282631632871926	
1.7436426331534172e-11	0.9101709127426147	-0.25113773345947266	-0.00035240629222244024	
1.8430893675717777e-11	0.9100180864334106	-0.25136566162109375	-0.00038969353772699833	
1.920835819652876e-11	0.90990149974823	-0.2515416741371155	-0.0004198868991807103	
2.009008568301407e-11	0.9097723960876465	-0.25173884630203247	-0.0004551924066618085	
2.1319836306205205e-11	0.9095982313156128	-0.2520093619823456	-0.0005062269046902657	
2.2071477062222087e-11	0.9094951152801514	-0.25217199325561523	-0.0005383972311392426	
2.3109121164960224e-11	0.9093571901321411	-0.2523930072784424	-0.0005839591613039374	
2.4236122724845235e-11	0.9092134237289429	-0.25262829661369324	-0.000634870259091258	
2.527445404239275e-11	0.9090864658355713	-0.25284042954444885	-0.0006830012425780296	
2.6017222722206843e-11	0.9089990854263306	-0.25298944115638733	-0.000718106864951551	
2.7017687989134547e-11	0.9088859558105469	-0.25318631529808044	-0.0007662235293537378	
2.8085834329106853e-11	0.9087709188461304	-0.2533916234970093	-0.0008185749175027013	
2.9094939082158284e-11	0.908667802810669	-0.2535806894302368	-0.0008688854286447167	
3.010832942148792e-11	0.9085699319839478	-0.2537657618522644	-0.0009201709181070328	
3.102483376894233e-11	0.9084861278533936	-0.2539288103580475	-0.0009671502048149705	
3.201248962366994e-11	0.9084011316299438	-0.25409984588623047	-0.001018350594677031	
3.326932863853321e-11	0.9083006978034973	-0.2543103098869324	-0.0010842683259397745	
3.413340535215502e-11	0.9082367420196533	-0.2544502019882202	-0.0011300209444016218	
3.5062526845100735e-11	0.9081727266311646	-0.2545962333679199	-0.0011795597383752465	
3.623981233877425e-11	0.9080984592437744	-0.2547745108604431	-0.0012427638284862041	
3.710638008474172e-11	0.9080488085746765	-0.25490087270736694	-0.0012895443942397833	
3.825784520305703e-11	0.9079892635345459	-0.2550622224807739	-0.0013519711792469025	
3.908044538964607e-11	0.9079512357711792	-0.25517284870147705	-0.00139671191573143	
4.021534967950717e-11	0.9079049825668335	-0.25531911849975586	-0.0014585726894438267	
4.104838745997108e-11	0.9078755378723145	-0.25542163848876953	-0.0015040384605526924	
4.2133044219606514e-11	0.9078429341316223	-0.25554895401000977	-0.0015632577706128359	
4.324637885004028e-11	0.9078160524368286	-0.25567227602005005	-0.00162400770932436	
4.402996904590876e-11	0.9078011512756348	-0.25575459003448486	-0.0016667087329551578	
4.5125049097242585e-11	0.9077857136726379	-0.2558632791042328	-0.0017262599430978298	
4.6212273741960054e-11	0.9077765941619873	-0.25596386194229126	-0.0017851903103291988	
4.7260108739116526e-11	0.9077736139297485	-0.2560538053512573	-0.0018417526734992862	
4.809142467025446e-11	0.9077752828598022	-0.2561202943325043	-0.001886434038169682	
4.9159337080372435e-11	0.9077824354171753	-0.25619927048683167	-0.0019435430876910686	
5.021886678431869e-11	0.9077950119972229	-0.25627046823501587	-0.0019998422358185053	
5.101835792216605e-11	0.9078081846237183	-0.25631943345069885	-0.0020420607179403305	
5.207533264448613e-11	0.9078302383422852	-0.2563778758049011	-0.0020974958315491676	
5.315551489066956e-11	0.9078580737113953	-0.2564302086830139	-0.0021536662243306637	
5.400739694730583e-11	0.9078838229179382	-0.25646618008613586	-0.002197595778852701	
5.5091986349006807e-11	0.9079212546348572	-0.25650516152381897	-0.002253024373203516	
5.620846582654846e-11	0.9079651236534119	-0.2565373480319977	-0.0023094622883945704	
5.729531067241938e-11	0.9080129265785217	-0.25656095147132874	-0.002363763749599457	
5.8070256170264614e-11	0.9080498814582825	-0.2565731108188629	-0.0024020797573029995	
5.917734656432706e-11	0.9081069827079773	-0.2565837502479553	-0.002456212881952524	
6.003108810308129e-11	0.9081542491912842	-0.25658655166625977	-0.0024974551051855087	
6.113122489225893e-11	0.9082192182540894	-0.25658321380615234	-0.0025499314069747925	
6.22180184298246e-11	0.9082878232002258	-0.25657233595848083	-0.002601007465273142	
6.300278625038994e-11	0.9083399176597595	-0.2565597593784332	-0.002637404017150402	
6.410638700135137e-11	0.9084168076515198	-0.25653547048568726	-0.0026878807693719864	
6.520560352865562e-11	0.9084974527359009	-0.2565035820007324	-0.0027373156044632196	
6.605083919783634e-11	0.9085621237754822	-0.2564738988876343	-0.0027747442945837975	
6.712998650406997e-11	0.9086477756500244	-0.2564294934272766	-0.0028217772487550974	
6.822672573094166e-11	0.9087384939193726	-0.2563769221305847	-0.0028686942532658577	
6.900223982565113e-11	0.9088046550750732	-0.2563352584838867	-0.002901323139667511	
7.009032693706857e-11	0.9089003205299377	-0.2562706470489502	-0.0029463269747793674	
7.114923931081054e-11	0.9089963436126709	-0.2562008202075958	-0.002989241387695074	
7.222017584615412e-11	0.909096360206604	-0.2561233639717102	-0.0030317427590489388	
7.302290020429484e-11	0.9091731309890747	-0.2560608386993408	-0.003062999341636896	
7.408071452535478e-11	0.9092764854431152	-0.25597265362739563	-0.003103393130004406	
7.513662780738663e-11	0.909382164478302	-0.2558780908584595	-0.0031428029760718346	
7.61900849972467e-11	0.9094898104667664	-0.25577738881111145	-0.003181204665452242	
7.724818900317198e-11	0.9096001386642456	-0.25566989183425903	-0.0032188468612730503	
7.806109546214333e-11	0.909686267375946	-0.2555830180644989	-0.003247128101065755	
7.912062638070257e-11	0.9098002314567566	-0.2554643750190735	-0.0032831528224051	
8.016798779043467e-11	0.9099146723747253	-0.2553410232067108	-0.0033178264275193214	
8.124234036828362e-11	0.9100337624549866	-0.25520840287208557	-0.003352418541908264	
8.201128202321924e-11	0.9101200103759766	-0.2551096975803375	-0.003376568201929331	
8.308364522139796e-11	0.9102415442466736	-0.2549670338630676	-0.0034093933645635843	
8.41398149744613e-11	0.9103626012802124	-0.25482070446014404	-0.0034407470375299454	
8.52100382262804e-11	0.9104865193367004	-0.2546667754650116	-0.0034715246874839067	
8.605037996504927e-11	0.9105846285820007	-0.25454193353652954	-0.0034949881955981255	
8.710529513106798e-11	0.9107086658477783	-0.254380464553833	-0.003523562802001834	
8.815244737273977e-11	0.9108327031135559	-0.25421491265296936	-0.0035509555600583553	
8.921659719400006e-11	0.9109594821929932	-0.25404155254364014	-0.003577797906473279	
9.025496833013332e-11	0.9110838174819946	-0.2538674771785736	-0.0036030199844390154	
9.100233886361691e-11	0.9111737012863159	-0.25373920798301697	-0.003620579605922103	
9.201425088187077e-11	0.9112957715988159	-0.25356173515319824	-0.003643561154603958	
9.302093521329636e-11	0.9114174842834473	-0.2533808946609497	-0.0036655168514698744	
9.403849701636074e-11	0.9115408658981323	-0.2531938850879669	-0.003686790354549885	
9.504401793497162e-11	0.9116629362106323	-0.2530049979686737	-0.0037069031968712807	
9.60395791411236e-11	0.9117839336395264	-0.2528141438961029	-0.003725928021594882	
9.702442385061683e-11	0.9119036197662354	-0.2526216506958008	-0.0037438783328980207	
9.802338782979738e-11	0.9120248556137085	-0.2524227797985077	-0.003761203261092305	
9.90236335954457e-11	0.9121462106704712	-0.25222012400627136	-0.0037776620592921972	
1.0001805271383157e-10	0.9122664928436279	-0.25201523303985596	-0.0037931452970951796	
1.0100465550373638e-10	0.9123855829238892	-0.25180870294570923	-0.0038076427299529314	
1.0224753200631099e-10	0.9125350713729858	-0.25154411792755127	-0.003824684303253889	
1.032357066614643e-10	0.9126534461975098	-0.2513303756713867	-0.003837265307083726	
1.0422617768548899e-10	0.912771463394165	-0.25111329555511475	-0.003849017433822155	
1.0521065552935414e-10	0.91288822889328	-0.25089478492736816	-0.003859850112348795	
1.0619028285136615e-10	0.9130037426948547	-0.2506747841835022	-0.0038697924464941025	
1.071600418410916e-10	0.9131173491477966	-0.25045451521873474	-0.0038788155652582645	
1.0812748802278231e-10	0.9132299423217773	-0.250232458114624	-0.0038870067801326513	
1.0910701661314254e-10	0.913343071937561	-0.25000545382499695	-0.003894479013979435	
1.1008024212714197e-10	0.9134545922279358	-0.24977779388427734	-0.003901086747646332	
1.1104853521741264e-10	0.9135645627975464	-0.24954929947853088	-0.0039068553596735	
1.120094000935198e-10	0.913672685623169	-0.24932077527046204	-0.003911787644028664	
1.1320175926144086e-10	0.9138054847717285	-0.24903477728366852	-0.003916812129318714	
1.141666348798979e-10	0.9139115810394287	-0.248801589012146	-0.003919992595911026	
1.1514138121272339e-10	0.9140176773071289	-0.24856451153755188	-0.003922401927411556	
1.1611823067914803e-10	0.9141227006912231	-0.24832554161548615	-0.003924007061868906	
1.170792432353661e-10	0.9142247438430786	-0.2480892390012741	-0.003924797289073467	
1.1805009100689828e-10	0.914326548576355	-0.24784934520721436	-0.00392480194568634	
1.1903042932176766e-10	0.9144279956817627	-0.24760612845420837	-0.003923996817320585	
1.2003137234870627e-10	0.9145300388336182	-0.2473568320274353	-0.003922337666153908	
1.2101531987700584e-10	0.914628803730011	-0.2471109926700592	-0.003919881768524647	
1.222394774533209e-10	0.9147495031356812	-0.24680420756340027	-0.003915686160326004	
1.2323036974023847e-10	0.9148454666137695	-0.24655529856681824	-0.0039113652892410755	
1.2422862610955393e-10	0.9149404168128967	-0.24630413949489594	-0.0039061768911778927	
1.2521267158023636e-10	0.9150323867797852	-0.24605631828308105	-0.003900242503732443	
1.2620286471281815e-10	0.9151231050491333	-0.24580681324005127	-0.003893449902534485	
1.2719070113051314e-10	0.9152119159698486	-0.24555791914463043	-0.0038858549669384956	
1.2817253100461332e-10	0.9152984619140625	-0.2453106790781021	-0.0038774970453232527	
1.291527396850387e-10	0.915382981300354	-0.24506407976150513	-0.0038683500606566668	
1.3011901793536137e-10	0.9154645204544067	-0.24482139945030212	-0.0038585502188652754	
1.310904428607822e-10	0.9155447483062744	-0.24457791447639465	-0.003847916144877672	
1.3206031757541734e-10	0.9156229496002197	-0.24433544278144836	-0.0038365195505321026	
1.3304853776630679e-10	0.9157006740570068	-0.24408915638923645	-0.0038241089787334204	
1.340246724236652e-10	0.9157756567001343	-0.2438468039035797	-0.0038110625464469194	
1.352230323469739e-10	0.9158649444580078	-0.24355067312717438	-0.0037939809262752533	
1.3618865849071566e-10	0.9159348011016846	-0.24331331253051758	-0.0037793670780956745	
1.3717916956417318e-10	0.9160044193267822	-0.24307119846343994	-0.003763592801988125	
1.3814546949084846e-10	0.9160703420639038	-0.24283640086650848	-0.003747443202883005	
1.3911433248686932e-10	0.9161344170570374	-0.24260255694389343	-0.0037305005826056004	
1.4008379316947699e-10	0.9161965847015381	-0.24237021803855896	-0.003712798934429884	
1.4105043482179094e-10	0.9162565469741821	-0.24214035272598267	-0.00369440671056509	
1.4201722284875364e-10	0.9163145422935486	-0.2419123649597168	-0.003675274783745408	
1.4300362323902824e-10	0.9163715839385986	-0.24168184399604797	-0.003654999192804098	
1.4421966825987033e-10	0.9164390563964844	-0.24140077829360962	-0.0036289608106017113	
1.4519772339469242e-10	0.916490912437439	-0.24117739498615265	-0.003607188817113638	
1.4616892615184824e-10	0.9165403842926025	-0.24095803499221802	-0.0035848442930728197	
1.4716566353978726e-10	0.9165889024734497	-0.24073562026023865	-0.0035611670464277267	
1.4814257401577546e-10	0.9166344404220581	-0.2405204176902771	-0.003537234850227833	
1.4912555059649791e-10	0.9166780710220337	-0.2403067946434021	-0.003512434661388397	
1.5011498942553939e-10	0.916719913482666	-0.2400948703289032	-0.0034867473877966404	
1.5109746767598639e-10	0.9167592525482178	-0.23988762497901917	-0.003460527863353491	
1.5209529852953537e-10	0.9167970418930054	-0.23968055844306946	-0.003433174453675747	
1.5307017431375189e-10	0.9168318510055542	-0.23948171734809875	-0.0034057493321597576	
1.5405331395211825e-10	0.916864812374115	-0.23928478360176086	-0.003377391956746578	
1.5503451913791392e-10	0.9168956279754639	-0.2390919327735901	-0.0033483931329101324	
1.5601003211110905e-10	0.9169240593910217	-0.23890404403209686	-0.0033188736997544765	
1.5722357710620176e-10	0.9169565439224243	-0.2386758029460907	-0.0032811968121677637	
1.5819151919265396e-10	0.9169801473617554	-0.2384982705116272	-0.003250389127060771	
1.591539267965705e-10	0.9170016050338745	-0.23832586407661438	-0.0032190955244004726	
1.6012195430361374e-10	0.9170211553573608	-0.23815670609474182	-0.003186956513673067	
1.6109202940121094e-10	0.9170386791229248	-0.2379915863275528	-0.003154085949063301	
1.62070406423182e-10	0.917054295539856	-0.23782962560653687	-0.00312026496976614	
1.6302699896274804e-10	0.9170675873756409	-0.23767584562301636	-0.0030865506269037724	
1.6421584460389896e-10	0.917081356048584	-0.2374911904335022	-0.00304376776330173	
1.65172282633345e-10	0.9170902371406555	-0.23734796047210693	-0.003008643165230751	
1.661381585505734e-10	0.9170972108840942	-0.237208291888237	-0.0029725381173193455	
1.6709887430322286e-10	0.9171022176742554	-0.23707443475723267	-0.0029359997715801	
1.680568434331334e-10	0.9171051979064941	-0.23694609105587006	-0.002898948499932885	
1.690021578444022e-10	0.9171062707901001	-0.23682460188865662	-0.0028617859352380037	
1.702134022785857e-10	0.9171048998832703	-0.23667657375335693	-0.002813303843140602	
1.7116847422940094e-10	0.9171016216278076	-0.23656606674194336	-0.002774394815787673	
1.721167813154149e-10	0.9170964956283569	-0.2364618480205536	-0.0027351719327270985	
1.7306638397619238e-10	0.9170894026756287	-0.23636314272880554	-0.002695311326533556	
1.7401279354051234e-10	0.9170805215835571	-0.2362704575061798	-0.002655007177963853	
1.752018274601557e-10	0.9170666933059692	-0.2361622452735901	-0.00260356068611145	
1.7614255969760616e-10	0.9170536994934082	-0.2360832840204239	-0.002562224864959717	
1.7710121121890983e-10	0.9170385003089905	-0.2360089123249054	-0.0025195328053086996	
1.7804760821333883e-10	0.9170216917991638	-0.23594167828559875	-0.0024768305011093616	
1.7923281707641068e-10	0.9169979691505432	-0.2358662486076355	-0.002422585152089596	
1.801675171020763e-10	0.9169772863388062	-0.23581373691558838	-0.002379214158281684	
1.8109745786353112e-10	0.9169548749923706	-0.23576770722866058	-0.0023355581797659397	
1.8204376822450507e-10	0.9169303178787231	-0.23572731018066406	-0.002290627220645547	
1.8319709169517614e-10	0.9168978929519653	-0.23568694293498993	-0.0022351969964802265	
1.8413621096769096e-10	0.9168695211410522	-0.23566138744354248	-0.002189535880461335	
1.8505760721101688e-10	0.9168399572372437	-0.23564273118972778	-0.00214429572224617	
1.862118414507209e-10	0.9168006181716919	-0.23562848567962646	-0.0020870338194072247	
1.8712907803203485e-10	0.916767418384552	-0.23562446236610413	-0.0020410853903740644	
1.8803752136879055e-10	0.916732907295227	-0.23562690615653992	-0.001995211699977517	
1.8918891424664567e-10	0.9166868925094604	-0.2356392741203308	-0.0019365805201232433	
1.9009802260282302e-10	0.9166486263275146	-0.23565642535686493	-0.0018899287097156048	
1.910105262395428e-10	0.9166088104248047	-0.2356802523136139	-0.0018428111216053367	
1.921604669383682e-10	0.9165562391281128	-0.23571979999542236	-0.001783057115972042	
1.9307936309436615e-10	0.9165123701095581	-0.23575904965400696	-0.0017350404523313046	
1.942261710660149e-10	0.9164555072784424	-0.23581767082214355	-0.0016748260241001844	
1.951517794579968e-10	0.9164077639579773	-0.2358728051185608	-0.0016260284464806318	
1.9608352650122034e-10	0.9163581132888794	-0.23593543469905853	-0.001576763461343944	
1.9700652840503802e-10	0.9163073897361755	-0.23600450158119202	-0.0015278497012332082	
1.981515209352618e-10	0.916242241859436	-0.2360999882221222	-0.0014670670498162508	
1.9907355279654027e-10	0.91618812084198	-0.23618477582931519	-0.0014180758735165	
2.0000003689435394e-10	0.9161321520805359	-0.23627708852291107	-0.001368844648823142	
2.0117485498651009e-10	0.9160590171813965	-0.2364043891429901	-0.0013064674567431211	
2.0210076117531036e-10	0.915999710559845	-0.23651280999183655	-0.0012573892017826438	
2.0302161158996216e-10	0.915939211845398	-0.23662766814231873	-0.001208690693601966	
2.0417478365366454e-10	0.9158614277839661	-0.23678141832351685	-0.0011479189852252603	
2.0510495911459757e-10	0.9157970547676086	-0.23691344261169434	-0.0010991180315613747	
2.060348238009081e-10	0.9157313108444214	-0.23705250024795532	-0.001050571328960359	
2.0718720115034413e-10	0.9156477451324463	-0.23723462224006653	-0.0009907977655529976	
2.081117085132098e-10	0.9155792593955994	-0.2373885214328766	-0.0009432050283066928	
2.0902855444087913e-10	0.9155098795890808	-0.23754790425300598	-0.0008963682921603322	
2.1018812651858273e-10	0.9154202938079834	-0.237759068608284	-0.0008377117337659001	
2.1110933825058666e-10	0.9153476357460022	-0.23793436586856842	-0.000791626051068306	
2.1203355168427472e-10	0.9152734279632568	-0.23811686038970947	-0.0007458942709490657	
2.131745025815181e-10	0.9151800870895386	-0.23835116624832153	-0.0006902005989104509	
2.1410486502231224e-10	0.9151026010513306	-0.23854948580265045	-0.0006454651593230665	
2.150372149472602e-10	0.915023684501648	-0.23875467479228973	-0.0006012961966916919	
2.1617440695127566e-10	0.9149258136749268	-0.23901350796222687	-0.0005483896238729358	
2.1708431652951178e-10	0.9148461818695068	-0.2392272651195526	-0.0005068766186013818	
2.1800112050472087e-10	0.9147648811340332	-0.2394484579563141	-0.00046583518269471824	
2.19167403892241e-10	0.914659857749939	-0.23973816633224487	-0.0004148386651650071	
2.2008426377717678e-10	0.9145760536193848	-0.23997226357460022	-0.00037575920578092337	
2.2100415750625214e-10	0.9144910573959351	-0.24021261930465698	-0.00033749477006495	
2.2213843917790003e-10	0.9143847227096558	-0.2405163198709488	-0.00029168312903493643	
2.2305744418407317e-10	0.9142975807189941	-0.24076813459396362	-0.00025573073071427643	
2.2422647320889811e-10	0.9141852855682373	-0.2410956621170044	-0.00021157844457775354	
2.2515332678321965e-10	0.9140951633453369	-0.24136090278625488	-0.00017788578406907618	
2.2607521393517892e-10	0.9140047430992126	-0.24162936210632324	-0.00014557255781255662	
2.2721066432834857e-10	0.9138921499252319	-0.24196618795394897	-0.00010747823398560286	
2.2814313618742954e-10	0.9137988090515137	-0.24224770069122314	-7.764951442368329e-05	
2.290632966793034e-10	0.9137059450149536	-0.24252960085868835	-4.954313044436276e-05	
2.3022653754788078e-10	0.9135874509811401	-0.24289152026176453	-1.5957177311065607e-05	
2.3113892435663382e-10	0.9134937524795532	-0.2431795597076416	8.824385076877661e-06	
2.3204834546436856e-10	0.9133996963500977	-0.24347007274627686	3.21251354762353e-05	
2.331938734695831e-10	0.9132803678512573	-0.24384059011936188	5.944059739704244e-05	
