#t (s)	<m>_x ()	<m>_y ()	<m>_z ()	
0	-2.6193447411060333e-09	2.421438694000244e-08	0.026459164917469025	
5.018592105260625e-11	-0.005856525618582964	0.050895869731903076	0.026333078742027283	
1.000532328654149e-10	-0.026837220415472984	0.09336090087890625	0.025731492787599564	
1.5008195368476893e-10	-0.056017711758613586	0.13442376255989075	0.025323066860437393	
2.0018369835507767e-10	-0.0909465104341507	0.16048316657543182	0.024170788004994392	
2.500287908025551e-10	-0.13182692229747772	0.18049533665180206	0.023540247231721878	
3.001424418701093e-10	-0.17252308130264282	0.18832089006900787	0.02253045327961445	
3.501345403504696e-10	-0.21307280659675598	0.1856374740600586	0.02152528427541256	
4.0015186094131507e-10	-0.2500370740890503	0.17457179725170135	0.020930148661136627	
4.502014850272133e-10	-0.2811587452888489	0.15404900908470154	0.020116399973630905	
5.001406787431334e-10	-0.3063828945159912	0.12775108218193054	0.01975579746067524	
5.500186973621283e-10	-0.32344990968704224	0.09707631170749664	0.019543292000889778	
6.001152022588487e-10	-0.3330290913581848	0.06341832876205444	0.019375760108232498	
6.500956010198754e-10	-0.334786981344223	0.029881339520215988	0.019608985632658005	
7.000501550574822e-10	-0.32900357246398926	-0.00248662568628788	0.019723044708371162	
7.500874415364577e-10	-0.3168734014034271	-0.03179062530398369	0.02016463689506054	
8.001176421064461e-10	-0.2989917993545532	-0.056401584297418594	0.02062530443072319	
8.500625265986622e-10	-0.27703285217285156	-0.07536377012729645	0.021216873079538345	
9.000168553030057e-10	-0.2521936595439911	-0.08769838511943817	0.02190699800848961	
9.500871261528525e-10	-0.2260485142469406	-0.09315560758113861	0.022573573514819145	
1.000025831586377e-09	-0.2002582550048828	-0.09184025228023529	0.023270325735211372	
1.0500084565652214e-09	-0.17621445655822754	-0.08418542146682739	0.023871811106801033	
1.1000369308389165e-09	-0.15522997081279755	-0.07115782052278519	0.024406585842370987	
1.1501823539049954e-09	-0.13837459683418274	-0.053730111569166183	0.024817602708935738	
1.200177619609826e-09	-0.12646205723285675	-0.033364661037921906	0.025101114064455032	
1.2501697610307039e-09	-0.11987568438053131	-0.011350085958838463	0.025247419252991676	
1.3000777627160118e-09	-0.1186467632651329	0.01089220866560936	0.02525932714343071	
1.3501507541362995e-09	-0.12253442406654358	0.03216113895177841	0.02514285035431385	
1.4001407556915938e-09	-0.13096588850021362	0.051213644444942474	0.02492070198059082	
1.450052338755841e-09	-0.14312458038330078	0.06708431988954544	0.024606779217720032	
1.5002032587890025e-09	-0.15814122557640076	0.0791611522436142	0.024233318865299225	
1.5500808367424402e-09	-0.17477576434612274	0.08686982840299606	0.023823879659175873	
1.6000632345974672e-09	-0.19206291437149048	0.090119868516922	0.02340802177786827	
1.6501992952686383e-09	-0.2089521288871765	0.08898212015628815	0.023010484874248505	
1.7000866892139359e-09	-0.22436822950839996	0.08381818234920502	0.022655928507447243	
1.7502201183486283e-09	-0.23766300082206726	0.07514245063066483	0.02236306294798851	
1.8001039505116545e-09	-0.24810020625591278	0.06376016139984131	0.022144261747598648	
1.8500981904086047e-09	-0.2553699314594269	0.05043872445821762	0.02200792357325554	
1.900052563739131e-09	-0.2592475116252899	0.03610440716147423	0.021954506635665894	
1.9501593377325166e-09	-0.2597496509552002	0.02159000001847744	0.021981969475746155	
2.0001515554162505e-09	-0.25706493854522705	0.00781722366809845	0.022084016352891922	
2.0501717810107355e-09	-0.2515498101711273	-0.004505746066570282	0.02225077897310257	
2.100176402582777e-09	-0.24369755387306213	-0.01474758516997099	0.02247079461812973	
2.1501943118057104e-09	-0.2340945601463318	-0.022450782358646393	0.02272883430123329	
2.2001689620257854e-09	-0.22340643405914307	-0.02732240781188011	0.023008909076452255	
2.2500282886528743e-09	-0.21232809126377106	-0.029265424236655235	0.023293273523449898	
2.3000819721757196e-09	-0.20145364105701447	-0.028361596167087555	0.0235670767724514	
2.350142211878966e-09	-0.19144031405448914	-0.024834807962179184	0.023814301937818527	
2.4001505090455947e-09	-0.18282851576805115	-0.01906658336520195	0.02402215078473091	
2.450135265244472e-09	-0.17602726817131042	-0.011538540944457054	0.02418125420808792	
2.5001068940580488e-09	-0.17131927609443665	-0.0028011947870254517	0.0242856927216053	
2.5502524718788994e-09	-0.16884368658065796	0.006596237421035767	0.024333152920007706	
2.6001019632696036e-09	-0.16861917078495026	0.01598307490348816	0.024324581027030945	
2.6500659808747162e-09	-0.17050155997276306	0.02489120326936245	0.024264412000775337	
2.7000442614912198e-09	-0.1742493361234665	0.03281949460506439	0.024159707129001617	
2.7501443302745754e-09	-0.17953652143478394	0.039384886622428894	0.024019353091716766	
2.800141460357147e-09	-0.1859314888715744	0.044266585260629654	0.0238548181951046	
2.8500874649966323e-09	-0.19298899173736572	0.04730257764458656	0.02367749996483326	
2.9001002571838908e-09	-0.20027005672454834	0.04844215512275696	0.023498408496379852	
2.950103990786572e-09	-0.2073262631893158	0.04773697257041931	0.023328552022576332	
3.000102723737701e-09	-0.21376441419124603	0.04534703493118286	0.023177258670330048	
3.050171165899228e-09	-0.21926110982894897	0.04151222109794617	0.02305208146572113	
3.1000559770750278e-09	-0.2235395610332489	0.036569464951753616	0.02295905165374279	
3.1500399815679394e-09	-0.22646072506904602	0.030851414427161217	0.02290087193250656	
3.2001307987321042e-09	-0.22793957591056824	0.024733275175094604	0.022878771647810936	
3.250251690698457e-09	-0.22797812521457672	0.018603013828396797	0.02289188653230667	
3.3000543952602317e-09	-0.2266790270805359	0.012856049463152885	0.02293691784143448	
3.350143165402265e-09	-0.22418880462646484	0.007734328508377075	0.023009907454252243	
3.4002282161514296e-09	-0.22073034942150116	0.003527788445353508	0.023104902356863022	
3.450060041196537e-09	-0.21658679842948914	0.00043448805809020996	0.023214565590023994	
3.5001025093547654e-09	-0.21200376749038696	-0.001466497778892517	0.023332782089710236	
3.5501604515529578e-09	-0.2072872668504715	-0.0021273214370012283	0.023451829329133034	
3.600030158229113e-09	-0.2027364820241928	-0.0015930570662021637	0.02356441132724285	
3.650049043299863e-09	-0.19857487082481384	3.0389055609703064e-05	0.023665200918912888	
3.700040146642053e-09	-0.19503438472747803	0.0025771912187337875	0.023748774081468582	
3.750178961718916e-09	-0.19227230548858643	0.005851414054632187	0.02381158620119095	
3.800200507433809e-09	-0.1904146522283554	0.009600382298231125	0.02385105937719345	
3.8501758987302384e-09	-0.18950556218624115	0.013579027727246284	0.02386651188135147	
3.900121048490474e-09	-0.1895349621772766	0.017543267458677292	0.023858726024627686	
3.9501425448444196e-09	-0.19044229388237	0.02127281203866005	0.023829614743590355	
4.00014020030606e-09	-0.1921175718307495	0.02455981820821762	0.023782340809702873	
4.050113666832217e-09	-0.1944127082824707	0.02724333107471466	0.02372088097035885	
4.100083343172945e-09	-0.197154700756073	0.02920875884592533	0.02364981733262539	
4.150041287256659e-09	-0.20015475153923035	0.030388832092285156	0.023573879152536392	
4.200023122210719e-09	-0.20322445034980774	0.030766561627388	0.023497868329286575	
4.250070078992262e-09	-0.2061837613582611	0.030369993299245834	0.023426106199622154	
4.300105474395487e-09	-0.208864226937294	0.029271284118294716	0.023362604901194572	
4.350200786565925e-09	-0.21113191545009613	0.027576884254813194	0.02331048808991909	
4.400216945218323e-09	-0.21287712454795837	0.02542799338698387	0.023272141814231873	
4.450084321791145e-09	-0.21403419971466064	0.022983551025390625	0.023248843848705292	
4.5000697213997825e-09	-0.21458116173744202	0.020391635596752167	0.02324087545275688	
4.550161021839511e-09	-0.21452204883098602	0.017811264842748642	0.02324777841567993	
4.600134878237893e-09	-0.21389985084533691	0.015402017161250114	0.023268206045031548	
4.650121722338033e-09	-0.21278664469718933	0.013285906985402107	0.023300135508179665	
4.700166927935259e-09	-0.21127623319625854	0.011565335094928741	0.0233411006629467	
4.750127366607207e-09	-0.20948535203933716	0.010318874381482601	0.023388002067804337	
4.800230563630481e-09	-0.2075272798538208	0.009583549574017525	0.02343805693089962	
4.850130910753577e-09	-0.2055387794971466	0.009373009204864502	0.023487797006964684	
4.9000849485550055e-09	-0.2036271095275879	0.009662430733442307	0.02353467047214508	
4.950066858455239e-09	-0.20189881324768066	0.010403893887996674	0.023576099425554276	
5.000124477445521e-09	-0.20044144988059998	0.01152734737843275	0.023610081523656845	
5.050206420544681e-09	-0.1993243396282196	0.012942972593009472	0.02363506145775318	
5.100179342109138e-09	-0.1985926628112793	0.014545721001923084	0.023650143295526505	
5.150177448390065e-09	-0.19826139509677887	0.016234345734119415	0.023655131459236145	
5.2001924550090124e-09	-0.1983245313167572	0.017905473709106445	0.023650404065847397	
5.250145063456111e-09	-0.19875255227088928	0.019461162388324738	0.02363686077296734	
5.300014373669973e-09	-0.19949552416801453	0.020818930119276047	0.02361593395471573	
5.35001632800849e-09	-0.20049363374710083	0.02191850170493126	0.023589201271533966	
5.4002057496412615e-09	-0.20167571306228638	0.022711535915732384	0.02355853095650673	
5.450091427789067e-09	-0.20294982194900513	0.023165563121438026	0.023526249453425407	
5.500062320278944e-09	-0.20424506068229675	0.023281587287783623	0.02349412813782692	
5.550110991692521e-09	-0.2054850161075592	0.023073066025972366	0.023464012891054153	
5.600084729590641e-09	-0.2065979540348053	0.022573508322238922	0.023437609896063805	
5.650080447312704e-09	-0.20753011107444763	0.0218299962580204	0.02341616526246071	
5.700084468341341e-09	-0.20823881030082703	0.020901262760162354	0.023400578647851944	
5.750072940479762e-09	-0.2086973488330841	0.01985328644514084	0.023391414433717728	
5.8000585554247e-09	-0.20889565348625183	0.01875418797135353	0.023388762027025223	
5.8501857772288724e-09	-0.2088385671377182	0.017667729407548904	0.023392386734485626	
5.900090142016043e-09	-0.20854677259922028	0.016663379967212677	0.02340163290500641	
5.950085723753389e-09	-0.20805144309997559	0.015787692740559578	0.023415643721818924	
6.000119256996462e-09	-0.20739392936229706	0.015084374696016312	0.023433320224285126	
6.050050193183872e-09	-0.2066245973110199	0.014584568329155445	0.023453347384929657	
6.1000282704128835e-09	-0.205793097615242	0.01430236455053091	0.023474495857954025	
6.150159879335407e-09	-0.2049495130777359	0.014240719377994537	0.02349548041820526	
6.2001471404067e-09	-0.20414817333221436	0.014389434829354286	0.023515021428465843	
6.250143388523314e-09	-0.20343029499053955	0.014725940302014351	0.023532122373580933	
6.300117003506065e-09	-0.20283246040344238	0.015218464657664299	0.023545941337943077	
6.350121186832296e-09	-0.20238102972507477	0.01582896150648594	0.0235559344291687	
6.40023609445336e-09	-0.20209258794784546	0.016515906900167465	0.02356170117855072	
6.450221131078198e-09	-0.20197470486164093	0.01723136380314827	0.023563239723443985	
6.500066693465032e-09	-0.20202197134494781	0.017931871116161346	0.023560702800750732	
6.550111759400147e-09	-0.2022215723991394	0.018582362681627274	0.02355451136827469	
6.6001091027177495e-09	-0.20255187153816223	0.019145246595144272	0.023545250296592712	
6.6502241027774734e-09	-0.20298658311367035	0.019595110788941383	0.0235336534678936	
6.700215233995996e-09	-0.20349177718162537	0.019911186769604683	0.023520559072494507	
6.750040457327232e-09	-0.20403268933296204	0.02008458971977234	0.02350686863064766	
6.800141888097073e-09	-0.2045804262161255	0.020115569233894348	0.02349330298602581	
6.850033906686349e-09	-0.20509803295135498	0.020010868087410927	0.02348073571920395	
6.9001378143131e-09	-0.20556138455867767	0.019784491509199142	0.02346976101398468	
6.950052665756367e-09	-0.20594385266304016	0.019458934664726257	0.023460978642106056	
7.000109951801811e-09	-0.2062309831380844	0.019057562574744225	0.0234546922147274	
7.050116514133451e-09	-0.2064109891653061	0.018609706312417984	0.023451149463653564	
7.100189966490944e-09	-0.20648077130317688	0.018143292516469955	0.023450367152690887	
7.150170748827107e-09	-0.2064431756734848	0.017687954008579254	0.023452207446098328	
7.200041891015843e-09	-0.20630797743797302	0.017269333824515343	0.023456383496522903	
7.250025939140064e-09	-0.2060886025428772	0.016907470300793648	0.023462533950805664	
7.300008974521767e-09	-0.20580336451530457	0.016620635986328125	0.023470139130949974	
7.35014975475377e-09	-0.205471932888031	0.016419991850852966	0.02347874641418457	
7.400098577350559e-09	-0.2051185667514801	0.016312915831804276	0.02348768338561058	
7.4501328148965375e-09	-0.2047634720802307	0.01629875972867012	0.023496495559811592	
7.500182187082688e-09	-0.20442767441272736	0.016372578218579292	0.023504644632339478	
7.550156930736258e-09	-0.20412999391555786	0.01652420312166214	0.023511705920100212	
7.600032289361038e-09	-0.2038850635290146	0.016739413142204285	0.02351733297109604	
7.650010767436473e-09	-0.20370271801948547	0.0170025285333395	0.02352132275700569	
7.700163393964024e-09	-0.2035897672176361	0.01729596219956875	0.02352352999150753	
7.750134262370852e-09	-0.20354902744293213	0.01759878359735012	0.023523947224020958	
7.800129164057302e-09	-0.20357772707939148	0.017893988639116287	0.02352265454828739	
7.850015812592956e-09	-0.20366951823234558	0.01816432550549507	0.023519858717918396	
7.900004869125756e-09	-0.20381537079811096	0.01839684508740902	0.023515790700912476	
7.950125528850048e-09	-0.20400378108024597	0.01858041062951088	0.023510782048106194	
8.00002585675691e-09	-0.20421981811523438	0.01870642974972725	0.023505207151174545	
8.050130493784852e-09	-0.20445089042186737	0.018772434443235397	0.023499367758631706	
8.100099363741228e-09	-0.2046811431646347	0.018777834251523018	0.02349366433918476	
8.150119696688234e-09	-0.20489820837974548	0.018726449459791183	0.023488422855734825	
8.200025945178027e-09	-0.20508956909179688	0.018625082448124886	0.023483894765377045	
8.250010336853071e-09	-0.20524677634239197	0.018482554703950882	0.023480292409658432	
8.300017467092984e-09	-0.20536255836486816	0.018309757113456726	0.023477789014577866	
8.350004913707343e-09	-0.20543283224105835	0.018118776381015778	0.023476427420973778	
8.400019538460812e-09	-0.20545649528503418	0.01792162097990513	0.02347623184323311	
8.450174549598177e-09	-0.20543506741523743	0.01772972382605076	0.02347714826464653	
8.500061785325197e-09	-0.2053729146718979	0.01755526289343834	0.023479033261537552	
8.550052662676394e-09	-0.20527604222297668	0.017405927181243896	0.02348172292113304	
8.600185464679342e-09	-0.2051519751548767	0.017288783565163612	0.023485027253627777	
8.650171846866128e-09	-0.20501035451889038	0.017209213227033615	0.023488664999604225	
8.700147921500721e-09	-0.20486025512218475	0.01716901920735836	0.023492466658353806	
8.750022806040173e-09	-0.20471104979515076	0.017167948186397552	0.023496147245168686	
8.800160059874267e-09	-0.20457041263580322	0.017203694209456444	0.023499559611082077	
8.85015174976031e-09	-0.2044469714164734	0.01727166585624218	0.023502465337514877	
8.900049442614743e-09	-0.20434658229351044	0.01736573316156864	0.023504767566919327	
8.950167589451678e-09	-0.2042730152606964	0.01747940480709076	0.023506352677941322	
9.000129285464328e-09	-0.20422932505607605	0.01760406605899334	0.023507187142968178	
9.050131794028306e-09	-0.20421597361564636	0.01773224025964737	0.02350727841258049	
9.10006456565879e-09	-0.2042316198348999	0.017856035381555557	0.02350662462413311	
9.150151802044362e-09	-0.20427383482456207	0.017969049513339996	0.023505376651883125	
9.200143523334685e-09	-0.2043381631374359	0.018064914271235466	0.023503586649894714	
9.250094089176868e-09	-0.20441950857639313	0.018139321357011795	0.023501433432102203	
9.300064699502341e-09	-0.2045121192932129	0.018189482390880585	0.023499054834246635	
9.350026450296925e-09	-0.20460987091064453	0.018214009702205658	0.023496588692069054	
9.40014971838642e-09	-0.20470714569091797	0.018213078379631042	0.023494187742471695	
9.450134388388692e-09	-0.20479775965213776	0.018188441172242165	0.023492000997066498	
9.500121393999234e-09	-0.20487716794013977	0.01814301498234272	0.02349012717604637	
9.550108378394601e-09	-0.204941526055336	0.01808078959584236	0.023488659411668777	
9.600249237606602e-09	-0.20498816668987274	0.018006175756454468	0.023487672209739685	
9.650073707874912e-09	-0.20501521229743958	0.017925027757883072	0.023487143218517303	
9.70011577095254e-09	-0.2050226628780365	0.017841625958681107	0.023487135767936707	
9.75003809282381e-09	-0.2050113081932068	0.017761480063199997	0.023487571626901627	
9.80001838047603e-09	-0.2049829065799713	0.017688719555735588	0.023488417267799377	
9.850162712746472e-09	-0.20494014024734497	0.017626987770199776	0.02348960191011429	
9.9001216363779e-09	-0.20488667488098145	0.017579585313796997	0.023491010069847107	
9.950155040019704e-09	-0.20482607185840607	0.017548004165291786	0.02349257469177246	
1.000019138213053e-08	-0.2047622799873352	0.01753314398229122	0.023494185879826546	
